     [A]        [1e-15 erg/cm^2/s/A]
     4215.78    1.94533
     4216.78    1.72274
     4217.78    1.87128
     4218.78    1.91116
     4219.78    2.01473
     4220.77    1.94200
     4221.77    1.72018
     4222.77    1.66665
     4223.77    1.81867
     4224.77    1.79319
     4225.77    1.69416
     4226.77    2.03405
     4227.77    2.12339
     4228.77    1.85040
     4229.77    1.95604
     4230.76    1.92982
     4231.76    1.71277
     4232.76    1.80929
     4233.76    1.90954
     4234.76    1.94221
     4235.76    1.87989
     4236.76    1.69766
     4237.76    1.91360
     4238.76    2.09343
     4239.76    2.05198
     4240.75    1.67808
     4241.75    1.84760
     4242.75    1.79582
     4243.75    1.80176
     4244.75    1.75906
     4245.75    1.63115
     4246.75    1.79264
     4247.75    2.03577
     4248.75    1.74870
     4249.75    1.86060
     4250.74    1.79059
     4251.74    1.83263
     4252.74    1.93081
     4253.74    1.95443
     4254.74    1.86170
     4255.74    1.86206
     4256.74    1.99712
     4257.74    1.98353
     4258.74    1.76118
     4259.74    1.72281
     4260.73    1.75866
     4261.73    1.66577
     4262.73    1.95027
     4263.73    1.97126
     4264.73    1.94533
     4265.73    1.79340
     4266.73    1.71630
     4267.73    1.78489
     4268.73    1.71582
     4269.73    1.62244
     4270.72    1.88809
     4271.72    1.77892
     4272.72    1.81878
     4273.72    1.98986
     4274.72    2.05716
     4275.72    1.90349
     4276.72    1.86476
     4277.72    1.93084
     4278.72    1.87512
     4279.72    1.83282
     4280.71    1.90581
     4281.71    1.69939
     4282.71    1.98255
     4283.71    2.08850
     4284.71    1.99590
     4285.71    2.03921
     4286.71    2.00835
     4287.71    2.05657
     4288.71    2.00810
     4289.71    1.76130
     4290.70    1.71107
     4291.70    1.88021
     4292.70    1.98549
     4293.70    1.89820
     4294.70    1.92602
     4295.70    1.93403
     4296.70    1.70159
     4297.70    1.57300
     4298.70    1.75013
     4299.70    1.88889
     4300.69    1.83433
     4301.69    1.83758
     4302.69    1.76746
     4303.69    1.54817
     4304.69    1.65284
     4305.69    1.99796
     4306.69    1.97384
     4307.69    1.87186
     4308.69    1.88319
     4309.69    1.89671
     4310.68    1.93348
     4311.68    1.91708
     4312.68    1.73643
     4313.68    1.85701
     4314.68    1.83072
     4315.68    2.02416
     4316.68    2.13231
     4317.68    1.92509
     4318.68    1.85397
     4319.68    1.83494
     4320.67    1.85808
     4321.67    1.93189
     4322.67    1.84696
     4323.67    1.67098
     4324.67    1.81168
     4325.67    1.92308
     4326.67    1.78021
     4327.67    1.76677
     4328.67    1.93077
     4329.67    2.02682
     4330.66    2.02158
     4331.66    1.97552
     4332.66    1.85481
     4333.66    1.72189
     4334.66    1.78946
     4335.66    2.00300
     4336.66    2.37982
     4337.66    3.19633
     4338.66    4.14653
     4339.66    4.73454
     4340.65    4.76523
     4341.65    4.13623
     4342.65    3.03955
     4343.65    2.10631
     4344.65    1.76975
     4345.65    1.72463
     4346.65    1.73973
     4347.65    1.64840
     4348.65    1.54896
     4349.65    1.64017
     4350.64    1.64687
     4351.64    1.69181
     4352.64    1.92579
     4353.64    2.09948
     4354.64    2.11453
     4355.64    2.23275
     4356.64    2.31129
     4357.64    2.15962
     4358.64    2.10690
     4359.64    2.05050
     4360.63    2.01999
     4361.63    1.99398
     4362.63    1.91311
     4363.63    1.86904
     4364.63    1.96571
     4365.63    1.96251
     4366.63    1.75932
     4367.63    2.01216
     4368.63    2.16664
     4369.63    2.00701
     4370.62    1.89809
     4371.62    1.89298
     4372.62    1.77371
     4373.62    1.88135
     4374.62    2.02459
     4375.62    1.97592
     4376.62    1.95359
     4377.62    1.95819
     4378.62    1.95159
     4379.62    1.91301
     4380.61    1.88015
     4381.61    1.88732
     4382.61    1.86917
     4383.61    1.89741
     4384.61    1.88629
     4385.61    1.74712
     4386.61    1.75332
     4387.61    2.00173
     4388.61    1.97306
     4389.61    1.79622
     4390.60    1.81039
     4391.60    1.79896
     4392.60    1.90999
     4393.60    1.92952
     4394.60    1.79601
     4395.60    1.87306
     4396.60    2.16277
     4397.60    2.14465
     4398.60    1.80368
     4399.60    1.85170
     4400.59    1.99546
     4401.59    1.79848
     4402.59    2.04437
     4403.59    1.99547
     4404.59    1.74254
     4405.59    1.86010
     4406.59    2.11765
     4407.59    2.13463
     4408.59    2.05355
     4409.59    2.10010
     4410.58    2.21944
     4411.58    2.13230
     4412.58    2.13298
     4413.58    2.15109
     4414.58    2.03509
     4415.58    1.92633
     4416.58    1.84535
     4417.58    1.82670
     4418.58    1.91531
     4419.58    2.00632
     4420.57    1.98490
     4421.57    2.01114
     4422.57    2.17324
     4423.57    2.10280
     4424.57    1.75767
     4425.57    1.97207
     4426.57    2.15504
     4427.57    2.06977
     4428.57    1.81987
     4429.57    1.78079
     4430.56    1.95887
     4431.56    1.75576
     4432.56    1.73856
     4433.56    1.84915
     4434.56    1.90474
     4435.56    2.07910
     4436.56    1.98646
     4437.56    2.08696
     4438.56    2.13237
     4439.56    2.05406
     4440.55    2.06066
     4441.55    2.10479
     4442.55    2.18743
     4443.55    2.05158
     4444.55    2.03805
     4445.55    2.06340
     4446.55    2.20858
     4447.55    2.20234
     4448.55    2.15741
     4449.55    2.20806
     4450.54    2.10967
     4451.54    1.91368
     4452.54    1.93630
     4453.54    1.86215
     4454.54    2.00675
     4455.54    1.83716
     4456.54    2.20909
     4457.54    2.22407
     4458.54    2.11713
     4459.54    2.01245
     4460.53    1.94181
     4461.53    2.11033
     4462.53    2.28660
     4463.53    2.02675
     4464.53    1.94542
     4465.53    2.02904
     4466.53    2.06835
     4467.53    2.03645
     4468.53    2.12174
     4469.53    2.05895
     4470.52    2.09676
     4471.52    2.05966
     4472.52    2.08005
     4473.52    2.28171
     4474.52    2.06543
     4475.52    2.04394
     4476.52    2.25035
     4477.52    2.34298
     4478.52    2.07841
     4479.52    1.94148
     4480.51    2.02916
     4481.51    1.98100
     4482.51    1.99500
     4483.51    2.16509
     4484.51    2.17500
     4485.51    2.17880
     4486.51    2.14302
     4487.51    1.99611
     4488.51    2.29611
     4489.51    2.18659
     4490.50    2.23680
     4491.50    2.18604
     4492.50    2.06144
     4493.50    2.06240
     4494.50    2.13511
     4495.50    2.13152
     4496.50    2.05646
     4497.50    2.16152
     4498.50    2.06974
     4499.50    2.30056
     4500.49    2.26814
     4501.49    2.23257
     4502.49    2.17442
     4503.49    2.16036
     4504.49    2.24247
     4505.49    2.24051
     4506.49    2.19689
     4507.49    2.46800
     4508.49    2.37436
     4509.49    2.17181
     4510.48    2.18309
     4511.48    2.28798
     4512.48    2.45813
     4513.48    2.29311
     4514.48    2.13671
     4515.48    2.18409
     4516.48    2.09207
     4517.48    1.97183
     4518.48    2.12301
     4519.48    2.28620
     4520.47    2.18469
     4521.47    2.13456
     4522.47    2.21343
     4523.47    2.20529
     4524.47    2.24802
     4525.47    2.30015
     4526.47    2.31794
     4527.47    2.34628
     4528.47    2.25456
     4529.47    2.20108
     4530.46    1.89979
     4531.46    2.04010
     4532.46    2.25139
     4533.46    2.23445
     4534.46    2.09458
     4535.46    2.03933
     4536.46    2.11653
     4537.46    2.15945
     4538.46    2.12535
     4539.46    2.23397
     4540.45    2.28310
     4541.45    2.04613
     4542.45    2.21639
     4543.45    2.31683
     4544.45    2.23649
     4545.45    2.13702
     4546.45    2.17329
     4547.45    2.18980
     4548.45    2.11912
     4549.45    2.16912
     4550.44    2.25659
     4551.44    2.16890
     4552.44    2.10036
     4553.44    2.08264
     4554.44    2.26308
     4555.44    2.33715
     4556.44    2.14025
     4557.44    2.12318
     4558.44    2.31132
     4559.44    2.30859
     4560.43    2.23711
     4561.43    2.32180
     4562.43    2.27348
     4563.43    2.33672
     4564.43    2.21228
     4565.43    2.27724
     4566.43    2.26988
     4567.43    2.16665
     4568.43    2.14997
     4569.43    2.20155
     4570.42    2.19607
     4571.42    2.19125
     4572.42    2.25143
     4573.42    2.31494
     4574.42    2.19772
     4575.42    2.16406
     4576.42    2.20751
     4577.42    2.19635
     4578.42    2.10074
     4579.42    2.18748
     4580.41    2.31063
     4581.41    2.17331
     4582.41    2.14357
     4583.41    2.15696
     4584.41    2.04461
     4585.41    2.12092
     4586.41    2.19632
     4587.41    2.02475
     4588.41    2.11719
     4589.41    2.38034
     4590.40    2.30810
     4591.40    2.08442
     4592.40    2.19249
     4593.40    2.30908
     4594.40    2.28540
     4595.40    2.26620
     4596.40    2.27837
     4597.40    2.23941
     4598.40    2.17552
     4599.40    2.30890
     4600.39    2.27307
     4601.39    2.16237
     4602.39    2.19866
     4603.39    2.15313
     4604.39    2.32953
     4605.39    2.31281
     4606.39    2.23426
     4607.39    2.26145
     4608.39    2.22582
     4609.39    2.28916
     4610.38    2.23214
     4611.38    2.23970
     4612.38    2.33889
     4613.38    2.31278
     4614.38    2.31747
     4615.38    2.38569
     4616.38    2.46877
     4617.38    2.26565
     4618.38    2.21390
     4619.38    2.30516
     4620.37    2.27747
     4621.37    2.26003
     4622.37    2.32481
     4623.37    2.36859
     4624.37    2.30393
     4625.37    2.17385
     4626.37    2.23201
     4627.37    2.18288
     4628.37    2.11090
     4629.37    2.24356
     4630.36    2.15805
     4631.36    2.08887
     4632.36    2.25562
     4633.36    2.40618
     4634.36    2.31653
     4635.36    2.22946
     4636.36    2.34505
     4637.36    2.26774
     4638.36    2.19768
     4639.36    2.21007
     4640.35    2.35716
     4641.35    2.41415
     4642.35    2.32528
     4643.35    2.25673
     4644.35    2.35697
     4645.35    2.45748
     4646.35    2.38011
     4647.35    2.35748
     4648.35    2.30601
     4649.35    2.41642
     4650.34    2.44818
     4651.34    2.29873
     4652.34    2.27785
     4653.34    2.44228
     4654.34    2.44854
     4655.34    2.36143
     4656.34    2.46357
     4657.34    2.55043
     4658.34    2.47830
     4659.34    2.66186
     4660.33    2.53020
     4661.33    2.31831
     4662.33    2.19366
     4663.33    2.38155
     4664.33    2.44796
     4665.33    2.29982
     4666.33    2.17798
     4667.33    2.18345
     4668.33    2.33566
     4669.33    2.51719
     4670.32    2.37001
     4671.32    2.29103
     4672.32    2.20490
     4673.32    2.33289
     4674.32    2.35167
     4675.32    2.26826
     4676.32    2.24949
     4677.32    2.27608
     4678.32    2.25623
     4679.32    2.28803
     4680.31    2.54371
     4681.31    2.45091
     4682.31    2.41468
     4683.31    2.39978
     4684.31    2.49213
     4685.31    2.32471
     4686.31    2.24296
     4687.31    2.48954
     4688.31    2.64525
     4689.31    2.48444
     4690.30    2.41600
     4691.30    2.45136
     4692.30    2.36882
     4693.30    2.23534
     4694.30    2.40963
     4695.30    2.55167
     4696.30    2.64586
     4697.30    2.48520
     4698.30    2.39767
     4699.30    2.48857
     4700.29    2.23999
     4701.29    2.12518
     4702.29    2.40577
     4703.29    2.51568
     4704.29    2.27730
     4705.29    2.14416
     4706.29    2.01850
     4707.29    2.09429
     4708.29    2.34773
     4709.29    2.56511
     4710.28    2.60236
     4711.28    2.39365
     4712.28    2.14759
     4713.28    2.44120
     4714.28    2.71391
     4715.28    2.51883
     4716.28    2.32918
     4717.28    2.29911
     4718.28    2.37808
     4719.28    2.44546
     4720.27    2.43764
     4721.27    2.40191
     4722.27    2.38487
     4723.27    2.34948
     4724.27    2.43119
     4725.27    2.21553
     4726.27    2.15053
     4727.27    2.21768
     4728.27    2.33186
     4729.27    2.41475
     4730.26    2.27697
     4731.26    2.14101
     4732.26    2.26831
     4733.26    2.32108
     4734.26    2.58219
     4735.26    2.38733
     4736.26    2.32298
     4737.26    2.42863
     4738.26    2.47232
     4739.26    2.54578
     4740.25    2.71845
     4741.25    2.63534
     4742.25    2.34454
     4743.25    2.37737
     4744.25    2.51740
     4745.25    2.42417
     4746.25    2.37507
     4747.25    2.37374
     4748.25    2.51668
     4749.25    2.55445
     4750.24    2.39458
     4751.24    2.43678
     4752.24    2.50371
     4753.24    2.37916
     4754.24    2.47269
     4755.24    2.54887
     4756.24    2.53894
     4757.24    2.50549
     4758.24    2.37333
     4759.24    2.46754
     4760.23    2.40576
     4761.23    2.42943
     4762.23    2.39439
     4763.23    2.26245
     4764.23    2.33723
     4765.23    2.43450
     4766.23    2.32625
     4767.23    2.52527
     4768.23    2.37001
     4769.23    2.43709
     4770.22    2.21863
     4771.22    2.28071
     4772.22    2.51368
     4773.22    2.58401
     4774.22    2.49239
     4775.22    2.40992
     4776.22    2.43600
     4777.22    2.44744
     4778.22    2.51293
     4779.22    2.49872
     4780.21    2.38536
     4781.21    2.45269
     4782.21    2.45625
     4783.21    2.57359
     4784.21    2.67483
     4785.21    2.56469
     4786.21    2.50287
     4787.21    2.50819
     4788.21    2.36053
     4789.21    2.61543
     4790.20    2.28950
     4791.20    2.54597
     4792.20    2.48844
     4793.20    2.58653
     4794.20    2.54282
     4795.20    2.38715
     4796.20    2.48240
     4797.20    2.52976
     4798.20    2.52717
     4799.20    2.29351
     4800.19    2.40277
     4801.19    2.47829
     4802.19    2.40631
     4803.19    2.40106
     4804.19    2.50763
     4805.19    2.51749
     4806.19    2.49982
     4807.19    2.54658
     4808.19    2.50097
     4809.19    2.54987
     4810.18    2.48448
     4811.18    2.65431
     4812.18    2.66141
     4813.18    2.42532
     4814.18    2.48932
     4815.18    2.54528
     4816.18    2.64588
     4817.18    2.74357
     4818.18    2.63298
     4819.18    2.65698
     4820.17    2.60842
     4821.17    2.66847
     4822.17    2.51030
     4823.17    2.50644
     4824.17    2.53015
     4825.17    2.43500
     4826.17    2.49598
     4827.17    2.40887
     4828.17    2.17923
     4829.17    2.31564
     4830.16    2.49936
     4831.16    2.52302
     4832.16    2.28612
     4833.16    2.57170
     4834.16    2.58712
     4835.16    2.55443
     4836.16    2.54754
     4837.16    2.45302
     4838.16    2.31937
     4839.16    2.41293
     4840.15    2.58066
     4841.15    2.33229
     4842.15    2.52089
     4843.15    2.50638
     4844.15    2.25536
     4845.15    2.44529
     4846.15    2.40682
     4847.15    2.56165
     4848.15    2.60634
     4849.15    2.43551
     4850.14    2.36824
     4851.14    2.28383
     4852.14    2.29802
     4853.14    2.32022
     4854.14    2.33830
     4855.14    2.35771
     4856.14    2.54028
     4857.14    3.25584
     4858.14    5.06653
     4859.14    9.29855
     4860.13    14.6885
     4861.13    16.9442
     4862.13    14.5695
     4863.13    11.2687
     4864.13    6.64854
     4865.13    3.59825
     4866.13    2.36654
     4867.13    2.21874
     4868.13    2.18113
     4869.13    2.21907
     4870.12    2.28775
     4871.12    2.23889
     4872.12    2.26739
     4873.12    2.44136
     4874.12    2.36752
     4875.12    2.46615
     4876.12    2.39574
     4877.12    2.34546
     4878.12    2.42352
     4879.12    2.45944
     4880.11    2.49499
     4881.11    2.42011
     4882.11    2.31240
     4883.11    2.38673
     4884.11    2.35250
     4885.11    2.28992
     4886.11    2.41658
     4887.11    2.39736
     4888.11    2.26494
     4889.11    2.39123
     4890.10    2.42001
     4891.10    2.39536
     4892.10    2.47949
     4893.10    2.45485
     4894.10    2.37435
     4895.10    2.70151
     4896.10    2.65889
     4897.10    2.47146
     4898.10    2.47778
     4899.10    2.65083
     4900.09    2.68407
     4901.09    2.50636
     4902.09    2.43156
     4903.09    2.49631
     4904.09    2.57132
     4905.09    2.69461
     4906.09    2.62757
     4907.09    2.49069
     4908.09    2.42652
     4909.09    2.45355
     4910.08    2.44850
     4911.08    2.44345
     4912.08    2.44883
     4913.08    2.43807
     4914.08    2.56986
     4915.08    2.68021
     4916.08    2.49624
     4917.08    2.64764
     4918.08    2.53708
     4919.08    2.54976
     4920.07    2.47076
     4921.07    2.59030
     4922.07    2.62604
     4923.07    2.54989
     4924.07    2.49550
     4925.07    2.48502
     4926.07    2.52617
     4927.07    2.63646
     4928.07    2.64898
     4929.07    2.65218
     4930.06    2.44382
     4931.06    2.42415
     4932.06    2.49745
     4933.06    2.64304
     4934.06    2.70048
     4935.06    2.66921
     4936.06    2.57913
     4937.06    2.43949
     4938.06    2.45782
     4939.06    2.43256
     4940.05    2.70028
     4941.05    2.61486
     4942.05    2.64378
     4943.05    2.68470
     4944.05    2.71772
     4945.05    2.71208
     4946.05    2.71388
     4947.05    2.71502
     4948.05    2.59439
     4949.05    2.47721
     4950.04    2.56254
     4951.04    2.68691
     4952.04    2.75532
     4953.04    2.71511
     4954.04    2.67159
     4955.04    2.79596
     4956.04    3.14269
     4957.04    3.68626
     4958.04    4.16477
     4959.04    4.22587
     4960.03    4.05701
     4961.03    3.76372
     4962.03    3.11233
     4963.03    2.70489
     4964.03    2.52699
     4965.03    2.54918
     4966.03    2.58234
     4967.03    2.62758
     4968.03    2.61974
     4969.03    2.48608
     4970.02    2.46915
     4971.02    2.55378
     4972.02    2.66133
     4973.02    2.72179
     4974.02    2.70315
     4975.02    2.80979
     4976.02    2.83125
     4977.02    2.71131
     4978.02    2.71880
     4979.02    2.79172
     4980.01    2.67538
     4981.01    2.57858
     4982.01    2.45806
     4983.01    2.67965
     4984.01    2.69002
     4985.01    2.71334
     4986.01    2.65439
     4987.01    2.80670
     4988.01    2.87849
     4989.01    2.74449
     4990.00    2.70470
     4991.00    2.78624
     4992.00    2.77287
     4993.00    2.72750
     4994.00    2.74197
     4995.00    2.91343
     4996.00    2.72114
     4997.00    2.69052
     4998.00    2.74258
     4999.00    2.64539
     4999.99    2.62303
     5000.99    2.75457
     5001.99    2.80682
     5002.99    3.17513
     5003.99    4.11296
     5004.99    5.58465
     5005.99    6.95031
     5006.99    7.26746
     5007.99    6.73125
     5008.99    5.71204
     5009.98    4.39765
     5010.98    3.30310
     5011.98    2.87641
     5012.98    2.75854
     5013.98    2.59685
     5014.98    2.82626
     5015.98    2.74929
     5016.98    2.83424
     5017.98    2.84941
     5018.98    2.72969
     5019.97    2.68080
     5020.97    2.70693
     5021.97    2.75031
     5022.97    2.80966
     5023.97    2.80799
     5024.97    2.89176
     5025.97    2.80853
     5026.97    2.69969
     5027.97    2.76784
     5028.97    2.61718
     5029.96    2.61260
     5030.96    2.82193
     5031.96    2.85151
     5032.96    2.81359
     5033.96    2.90931
     5034.96    2.65095
     5035.96    2.73754
     5036.96    2.79602
     5037.96    2.81027
     5038.96    2.80978
     5039.95    2.70906
     5040.95    2.80557
     5041.95    2.86424
     5042.95    2.75018
     5043.95    2.75797
     5044.95    2.88903
     5045.95    2.81317
     5046.95    2.80007
     5047.95    2.71870
     5048.95    2.74570
     5049.94    2.73784
     5050.94    2.73023
     5051.94    2.84233
     5052.94    2.85494
     5053.94    2.87536
     5054.94    3.03482
     5055.94    3.01360
     5056.94    3.02485
     5057.94    3.08796
     5058.94    2.93404
     5059.93    2.86579
     5060.93    2.73630
     5061.93    2.61765
     5062.93    2.82065
     5063.93    3.05943
     5064.93    2.92892
     5065.93    2.69235
     5066.93    2.76278
     5067.93    2.87107
     5068.93    2.92280
     5069.92    2.79611
     5070.92    2.95139
     5071.92    2.75123
     5072.92    2.81244
     5073.92    2.83404
     5074.92    2.70609
     5075.92    2.91089
     5076.92    3.16796
     5077.92    2.81556
     5078.92    2.89644
     5079.91    3.00914
     5080.91    2.67309
     5081.91    2.93513
     5082.91    2.82485
     5083.91    2.81942
     5084.91    2.95650
